x	y	xdot	ydot	theta	thetadot	cl	cr
1.654346084594726562e+01	2.442216682434082031e+01	0.000000000000000000e+00	-3.270000219345092773e-01	2.821957767009735107e-01	0.000000000000000000e+00	0.000000000000000000e+00	0.000000000000000000e+00
1.654367637634277344e+01	2.441402626037597656e+01	1.306707691401243210e-02	-4.867235720157623291e-01	2.820531725883483887e-01	-7.756774779409170151e-03	0.000000000000000000e+00	0.000000000000000000e+00
1.654411125183105469e+01	2.440323257446289062e+01	2.613444067537784576e-02	-6.464493274688720703e-01	2.817853391170501709e-01	-1.551372837275266647e-02	0.000000000000000000e+00	0.000000000000000000e+00
1.654476356506347656e+01	2.438977813720703125e+01	3.920296207070350647e-02	-8.061798214912414551e-01	2.813910543918609619e-01	-2.327081933617591858e-02	0.000000000000000000e+00	0.000000000000000000e+00
1.654563331604003906e+01	2.437366676330566406e+01	5.227326229214668274e-02	-9.659169912338256836e-01	2.808694541454315186e-01	-3.102796152234077454e-02	0.000000000000000000e+00	0.000000000000000000e+00
1.654672241210937500e+01	2.435489654541015625e+01	6.534649431705474854e-02	-1.125664591789245605e+00	2.802199125289916992e-01	-3.878515213727951050e-02	0.000000000000000000e+00	0.000000000000000000e+00
1.654802894592285156e+01	2.433346557617187500e+01	7.842323184013366699e-02	-1.285424470901489258e+00	2.794420719146728516e-01	-4.654237627983093262e-02	0.000000000000000000e+00	0.000000000000000000e+00
1.654955482482910156e+01	2.430937576293945312e+01	9.150421619415283203e-02	-1.445199251174926758e+00	2.785354256629943848e-01	-5.429960042238235474e-02	0.000000000000000000e+00	0.000000000000000000e+00
1.655129814147949219e+01	2.428262138366699219e+01	1.045901700854301453e-01	-1.604991555213928223e+00	2.775001227855682373e-01	-6.205682456493377686e-02	0.000000000000000000e+00	0.000000000000000000e+00
1.655325889587402344e+01	2.425320625305175781e+01	1.176817789673805237e-01	-1.764803767204284668e+00	2.763357460498809814e-01	-6.981404870748519897e-02	0.000000000000000000e+00	0.000000000000000000e+00
1.655543899536132812e+01	2.422112655639648438e+01	1.307797282934188843e-01	-1.924638867378234863e+00	2.750422656536102295e-01	-7.757125049829483032e-02	0.000000000000000000e+00	0.000000000000000000e+00
1.655783653259277344e+01	2.418638229370117188e+01	1.438847333192825317e-01	-2.084499120712280273e+00	2.736197412014007568e-01	-8.532844483852386475e-02	0.000000000000000000e+00	0.000000000000000000e+00
1.656045341491699219e+01	2.414897346496582031e+01	1.569974571466445923e-01	-2.244386911392211914e+00	2.720680832862854004e-01	-9.308563917875289917e-02	0.000000000000000000e+00	0.000000000000000000e+00
1.656328964233398438e+01	2.410890197753906250e+01	1.701185256242752075e-01	-2.404304981231689453e+00	2.703869938850402832e-01	-1.008428111672401428e-01	0.000000000000000000e+00	0.000000000000000000e+00
1.656634330749511719e+01	2.406616401672363281e+01	1.832485795021057129e-01	-2.564255475997924805e+00	2.685769200325012207e-01	-1.085999906063079834e-01	0.000000000000000000e+00	0.000000000000000000e+00
1.656961631774902344e+01	2.402075958251953125e+01	1.963882297277450562e-01	-2.724241971969604492e+00	2.666373848915100098e-01	-1.163571253418922424e-01	0.000000000000000000e+00	0.000000000000000000e+00
1.657310867309570312e+01	2.397268867492675781e+01	2.095380872488021851e-01	-2.884266376495361328e+00	2.645687162876129150e-01	-1.241142451763153076e-01	0.000000000000000000e+00	0.000000000000000000e+00
1.657682037353515625e+01	2.392194938659667969e+01	2.226987332105636597e-01	-3.044331550598144531e+00	2.623707056045532227e-01	-1.318713575601577759e-01	0.000000000000000000e+00	0.000000000000000000e+00
1.658075141906738281e+01	2.386854171752929688e+01	2.358706891536712646e-01	-3.204439640045166016e+00	2.600435316562652588e-01	-1.396284550428390503e-01	0.000000000000000000e+00	0.000000000000000000e+00
1.658490180969238281e+01	2.381246566772460938e+01	2.490542978048324585e-01	-3.364593267440795898e+00	2.575870454311370850e-01	-1.473855227231979370e-01	0.000000000000000000e+00	0.000000000000000000e+00
1.658926391601562500e+01	2.375371742248535156e+01	2.617187201976776123e-01	-3.524935483932495117e+00	2.550065517425537109e-01	-1.548289656639099121e-01	0.000000000000000000e+00	0.000000000000000000e+00
1.659382820129394531e+01	2.369229316711425781e+01	2.738232612609863281e-01	-3.685475349426269531e+00	2.523075044155120850e-01	-1.619352251291275024e-01	0.000000000000000000e+00	0.000000000000000000e+00
1.659858512878417969e+01	2.362818908691406250e+01	2.853735685348510742e-01	-3.846209764480590820e+00	2.494956403970718384e-01	-1.687080115079879761e-01	0.000000000000000000e+00	0.000000000000000000e+00
1.660352516174316406e+01	2.356140327453613281e+01	2.963753938674926758e-01	-4.007134914398193359e+00	2.465763986110687256e-01	-1.751510351896286011e-01	0.000000000000000000e+00	0.000000000000000000e+00
1.660863876342773438e+01	2.349193000793457031e+01	3.068348765373229980e-01	-4.168247222900390625e+00	2.435552328824996948e-01	-1.812683939933776855e-01	0.000000000000000000e+00	0.000000000000000000e+00
1.661391830444335938e+01	2.341976928710937500e+01	3.167580068111419678e-01	-4.329543113708496094e+00	2.404374480247497559e-01	-1.870640963315963745e-01	0.000000000000000000e+00	0.000000000000000000e+00
1.661935424804687500e+01	2.334491729736328125e+01	3.261513710021972656e-01	-4.491016864776611328e+00	2.372283786535263062e-01	-1.925424784421920776e-01	0.000000000000000000e+00	0.000000000000000000e+00
1.662493705749511719e+01	2.326737213134765625e+01	3.350214362144470215e-01	-4.652664661407470703e+00	2.339333891868591309e-01	-1.977079808712005615e-01	0.000000000000000000e+00	0.000000000000000000e+00
1.663065910339355469e+01	2.318712615966796875e+01	3.433750867843627930e-01	-4.814480781555175781e+00	2.305574268102645874e-01	-2.025651633739471436e-01	0.000000000000000000e+00	0.000000000000000000e+00
1.663651275634765625e+01	2.310418319702148438e+01	3.512193262577056885e-01	-4.976460456848144531e+00	2.271054685115814209e-01	-2.071186900138854980e-01	0.000000000000000000e+00	0.000000000000000000e+00
1.664248847961425781e+01	2.301853561401367188e+01	3.585613369941711426e-01	-5.138598918914794922e+00	2.235827296972274780e-01	-2.113734036684036255e-01	0.000000000000000000e+00	0.000000000000000000e+00
1.664857864379882812e+01	2.293018341064453125e+01	3.654084801673889160e-01	-5.300889492034912109e+00	2.199940681457519531e-01	-2.153342366218566895e-01	0.000000000000000000e+00	0.000000000000000000e+00
1.665477561950683594e+01	2.283912467956542969e+01	3.717683553695678711e-01	-5.463327407836914062e+00	2.163439989089965820e-01	-2.190061956644058228e-01	0.000000000000000000e+00	0.000000000000000000e+00
1.666106986999511719e+01	2.274535560607910156e+01	3.776486515998840332e-01	-5.625906944274902344e+00	2.126376181840896606e-01	-2.223943918943405151e-01	0.000000000000000000e+00	0.000000000000000000e+00
1.666745376586914062e+01	2.264887428283691406e+01	3.830572962760925293e-01	-5.788621425628662109e+00	2.088793069124221802e-01	-2.255041301250457764e-01	0.000000000000000000e+00	0.000000000000000000e+00
1.667391967773437500e+01	2.254967880249023438e+01	3.880023062229156494e-01	-5.951464653015136719e+00	2.050737440586090088e-01	-2.283406555652618408e-01	0.000000000000000000e+00	0.000000000000000000e+00
1.668046188354492188e+01	2.244776725769042969e+01	3.924919962882995605e-01	-6.114431858062744141e+00	2.012252509593963623e-01	-2.309093624353408813e-01	0.000000000000000000e+00	0.000000000000000000e+00
1.668707084655761719e+01	2.234313774108886719e+01	3.965347111225128174e-01	-6.277515888214111328e+00	1.973384022712707520e-01	-2.332157641649246216e-01	0.000000000000000000e+00	0.000000000000000000e+00
1.669373893737792969e+01	2.223578834533691406e+01	4.001389145851135254e-01	-6.440711975097656250e+00	1.934174448251724243e-01	-2.352653145790100098e-01	0.000000000000000000e+00	0.000000000000000000e+00
1.670046043395996094e+01	2.212571716308593750e+01	4.033133685588836670e-01	-6.604013442993164062e+00	1.894665062427520752e-01	-2.370636463165283203e-01	0.000000000000000000e+00	0.000000000000000000e+00
1.670722770690917969e+01	2.201292228698730469e+01	4.060667455196380615e-01	-6.767414569854736328e+00	1.854897290468215942e-01	-2.386163920164108276e-01	0.000000000000000000e+00	0.000000000000000000e+00
1.671403503417968750e+01	2.189740371704101562e+01	4.084080755710601807e-01	-6.930909156799316406e+00	1.814909130334854126e-01	-2.399292290210723877e-01	0.000000000000000000e+00	0.000000000000000000e+00
1.672087478637695312e+01	2.177915763854980469e+01	4.103463590145111084e-01	-7.094491481781005859e+00	1.774742007255554199e-01	-2.410078644752502441e-01	0.000000000000000000e+00	0.000000000000000000e+00
1.672773933410644531e+01	2.165818405151367188e+01	4.118907153606414795e-01	-7.258155822753906250e+00	1.734433770179748535e-01	-2.418580949306488037e-01	0.000000000000000000e+00	0.000000000000000000e+00
1.673462295532226562e+01	2.153448104858398438e+01	4.130503833293914795e-01	-7.421896457672119141e+00	1.694021522998809814e-01	-2.424857169389724731e-01	0.000000000000000000e+00	0.000000000000000000e+00
1.674151992797851562e+01	2.140804862976074219e+01	4.138346612453460693e-01	-7.585707664489746094e+00	1.653540432453155518e-01	-2.428965121507644653e-01	0.000000000000000000e+00	0.000000000000000000e+00
1.674842453002929688e+01	2.127888488769531250e+01	4.142529964447021484e-01	-7.749584197998046875e+00	1.613025218248367310e-01	-2.430963963270187378e-01	0.000000000000000000e+00	0.000000000000000000e+00
1.675532913208007812e+01	2.114698982238769531e+01	4.143148362636566162e-01	-7.913521289825439453e+00	1.572510898113250732e-01	-2.430907636880874634e-01	0.000000000000000000e+00	0.000000000000000000e+00
1.676222991943359375e+01	2.101236152648925781e+01	4.140297770500183105e-01	-8.077511787414550781e+00	1.532030105590820312e-01	-2.428861409425735474e-01	0.000000000000000000e+00	0.000000000000000000e+00
1.676911926269531250e+01	2.087500190734863281e+01	4.133856296539306641e-01	-8.241396903991699219e+00	1.491616815328598022e-01	-2.424854934215545654e-01	0.000000000000000000e+00	0.000000000000000000e+00
1.677595329284667969e+01	2.073520088195800781e+01	4.100539684295654297e-01	-8.387800216674804688e+00	1.451350599527359009e-01	-2.416038811206817627e-01	0.000000000000000000e+00	0.000000000000000000e+00
1.678269195556640625e+01	2.059323883056640625e+01	4.043321907520294189e-01	-8.517469406127929688e+00	1.411306560039520264e-01	-2.402680218219757080e-01	0.000000000000000000e+00	0.000000000000000000e+00
1.678930091857910156e+01	2.044937896728515625e+01	3.965255022048950195e-01	-8.631361007690429688e+00	1.371555924415588379e-01	-2.385096549987792969e-01	0.000000000000000000e+00	0.000000000000000000e+00
1.679574966430664062e+01	2.030386924743652344e+01	3.869136869907379150e-01	-8.730389595031738281e+00	1.332162916660308838e-01	-2.363618314266204834e-01	0.000000000000000000e+00	0.000000000000000000e+00
1.680201148986816406e+01	2.015694236755371094e+01	3.757519125938415527e-01	-8.815424919128417969e+00	1.293187588453292847e-01	-2.338589131832122803e-01	0.000000000000000000e+00	0.000000000000000000e+00
1.680806541442871094e+01	2.000881767272949219e+01	3.632721304893493652e-01	-8.887299537658691406e+00	1.254682540893554688e-01	-2.310350984334945679e-01	0.000000000000000000e+00	0.000000000000000000e+00
1.681389427185058594e+01	1.985969543457031250e+01	3.497217595577239990e-01	-8.947141647338867188e+00	1.216695755720138550e-01	-2.279301285743713379e-01	0.000000000000000000e+00	0.000000000000000000e+00
1.681948089599609375e+01	1.970977401733398438e+01	3.352149724960327148e-01	-8.995008468627929688e+00	1.179269552230834961e-01	-2.245644330978393555e-01	0.000000000000000000e+00	0.000000000000000000e+00
1.682481384277343750e+01	1.955923271179199219e+01	3.199934959411621094e-01	-9.032267570495605469e+00	1.142439693212509155e-01	-2.209818214178085327e-01	0.000000000000000000e+00	0.000000000000000000e+00
1.682988357543945312e+01	1.940824127197265625e+01	3.041802048683166504e-01	-9.059301376342773438e+00	1.106238812208175659e-01	-2.172073572874069214e-01	0.000000000000000000e+00	0.000000000000000000e+00
1.683468246459960938e+01	1.925695800781250000e+01	2.879109680652618408e-01	-9.076720237731933594e+00	1.070694923400878906e-01	-2.132694870233535767e-01	0.000000000000000000e+00	0.000000000000000000e+00
1.683920478820800781e+01	1.910553550720214844e+01	2.713102400302886963e-01	-9.085133552551269531e+00	1.035829111933708191e-01	-2.091958224773406982e-01	0.000000000000000000e+00	0.000000000000000000e+00
1.684344673156738281e+01	1.895411491394042969e+01	2.544895112514495850e-01	-9.085124015808105469e+00	1.001660153269767761e-01	-2.050120681524276733e-01	0.000000000000000000e+00	0.000000000000000000e+00
1.684740638732910156e+01	1.880282402038574219e+01	2.375480383634567261e-01	-9.077244758605957031e+00	9.682031720876693726e-02	-2.007427215576171875e-01	0.000000000000000000e+00	0.000000000000000000e+00
1.685108184814453125e+01	1.865178871154785156e+01	2.205738574266433716e-01	-9.062023162841796875e+00	9.354688972234725952e-02	-1.964088231325149536e-01	0.000000000000000000e+00	0.000000000000000000e+00
1.685447502136230469e+01	1.850111961364746094e+01	2.036446630954742432e-01	-9.039953231811523438e+00	9.034653753042221069e-02	-1.920311152935028076e-01	0.000000000000000000e+00	0.000000000000000000e+00
1.685758972167968750e+01	1.835092735290527344e+01	1.868289560079574585e-01	-9.011508941650390625e+00	8.721935749053955078e-02	-1.876281946897506714e-01	0.000000000000000000e+00	0.000000000000000000e+00
1.686042594909667969e+01	1.820130729675292969e+01	1.701865792274475098e-01	-8.977134704589843750e+00	8.416586369276046753e-02	-1.832166016101837158e-01	0.000000000000000000e+00	0.000000000000000000e+00
1.686298942565917969e+01	1.805235099792480469e+01	1.537698060274124146e-01	-8.937253952026367188e+00	8.118563145399093628e-02	-1.788113266229629517e-01	0.000000000000000000e+00	0.000000000000000000e+00
1.686528396606445312e+01	1.790414619445800781e+01	1.376238465309143066e-01	-8.892263412475585938e+00	7.827844470739364624e-02	-1.744255572557449341e-01	0.000000000000000000e+00	0.000000000000000000e+00
1.686731338500976562e+01	1.775677108764648438e+01	1.217876002192497253e-01	-8.842542648315429688e+00	7.544396817684173584e-02	-1.700714379549026489e-01	0.000000000000000000e+00	0.000000000000000000e+00
1.686908531188964844e+01	1.761029624938964844e+01	1.062943041324615479e-01	-8.788449287414550781e+00	7.268128544092178345e-02	-1.657591015100479126e-01	0.000000000000000000e+00	0.000000000000000000e+00
1.687060546875000000e+01	1.746479034423828125e+01	9.117197245359420776e-02	-8.730320930480957031e+00	6.998958438634872437e-02	-1.614976525306701660e-01	0.000000000000000000e+00	0.000000000000000000e+00
1.687187957763671875e+01	1.732031631469726562e+01	7.644403725862503052e-02	-8.668478012084960938e+00	6.736793369054794312e-02	-1.572946310043334961e-01	0.000000000000000000e+00	0.000000000000000000e+00
1.687291526794433594e+01	1.717692947387695312e+01	6.212975084781646729e-02	-8.603218078613281250e+00	6.481532007455825806e-02	-1.531566977500915527e-01	0.000000000000000000e+00	0.000000000000000000e+00
1.687372016906738281e+01	1.703468322753906250e+01	4.824480786919593811e-02	-8.534827232360839844e+00	6.233039125800132751e-02	-1.490895897150039673e-01	0.000000000000000000e+00	0.000000000000000000e+00
1.687430000305175781e+01	1.689362335205078125e+01	3.480123355984687805e-02	-8.463574409484863281e+00	5.991207435727119446e-02	-1.450974047183990479e-01	0.000000000000000000e+00	0.000000000000000000e+00
1.687466430664062500e+01	1.675379562377929688e+01	2.180831506848335266e-02	-8.389713287353515625e+00	5.755886435508728027e-02	-1.411839574575424194e-01	0.000000000000000000e+00	0.000000000000000000e+00
1.687481880187988281e+01	1.661523818969726562e+01	9.272639639675617218e-03	-8.313482284545898438e+00	5.526964366436004639e-02	-1.373520791530609131e-01	0.000000000000000000e+00	0.000000000000000000e+00
1.687477302551269531e+01	1.647798728942871094e+01	-2.801491413265466690e-03	-8.235105514526367188e+00	5.304281041026115417e-02	-1.336040794849395752e-01	0.000000000000000000e+00	0.000000000000000000e+00
1.687453269958496094e+01	1.634207344055175781e+01	-1.441208180040121078e-02	-8.154792785644531250e+00	5.087708309292793274e-02	-1.299412101507186890e-01	0.000000000000000000e+00	0.000000000000000000e+00
1.687410736083984375e+01	1.620752716064453125e+01	-2.555896528065204620e-02	-8.072746276855468750e+00	4.877101257443428040e-02	-1.263643801212310791e-01	0.000000000000000000e+00	0.000000000000000000e+00
1.687350273132324219e+01	1.607437515258789062e+01	-3.624321520328521729e-02	-7.989152431488037109e+00	4.672306403517723083e-02	-1.228741928935050964e-01	0.000000000000000000e+00	0.000000000000000000e+00
1.687272834777832031e+01	1.594263839721679688e+01	-4.646772891283035278e-02	-7.904188156127929688e+00	4.473188519477844238e-02	-1.194705590605735779e-01	0.000000000000000000e+00	0.000000000000000000e+00
1.687179183959960938e+01	1.581233692169189453e+01	-5.623655021190643311e-02	-7.818019390106201172e+00	4.279595240950584412e-02	-1.161531135439872742e-01	0.000000000000000000e+00	0.000000000000000000e+00
1.687069892883300781e+01	1.568348979949951172e+01	-6.555479019880294800e-02	-7.730801582336425781e+00	4.091395065188407898e-02	-1.129211187362670898e-01	0.000000000000000000e+00	0.000000000000000000e+00
1.686945915222167969e+01	1.555611133575439453e+01	-7.442861050367355347e-02	-7.642680644989013672e+00	3.908431529998779297e-02	-1.097734197974205017e-01	0.000000000000000000e+00	0.000000000000000000e+00
1.686807823181152344e+01	1.543021488189697266e+01	-8.286483585834503174e-02	-7.553794384002685547e+00	3.730579465627670288e-02	-1.067088767886161804e-01	0.000000000000000000e+00	0.000000000000000000e+00
1.686656379699707031e+01	1.530580997467041016e+01	-9.087111800909042358e-02	-7.464272022247314453e+00	3.557701408863067627e-02	-1.037258729338645935e-01	0.000000000000000000e+00	0.000000000000000000e+00
1.686492347717285156e+01	1.518290615081787109e+01	-9.845563769340515137e-02	-7.374233245849609375e+00	3.389655426144599915e-02	-1.008227691054344177e-01	0.000000000000000000e+00	0.000000000000000000e+00
1.686316299438476562e+01	1.506150913238525391e+01	-1.056270375847816467e-01	-7.283792495727539062e+00	3.226327896118164062e-02	-9.799791872501373291e-02	0.000000000000000000e+00	0.000000000000000000e+00
1.686128997802734375e+01	1.494162464141845703e+01	-1.123944520950317383e-01	-7.193054199218750000e+00	3.067577444016933441e-02	-9.524934738874435425e-02	0.000000000000000000e+00	0.000000000000000000e+00
1.685931015014648438e+01	1.482325553894042969e+01	-1.187673434615135193e-01	-7.102118968963623047e+00	2.913292311131954193e-02	-9.257508814334869385e-02	0.000000000000000000e+00	0.000000000000000000e+00
1.685723114013671875e+01	1.470640468597412109e+01	-1.247553378343582153e-01	-7.011078834533691406e+00	2.763331122696399689e-02	-8.997320383787155151e-02	0.000000000000000000e+00	0.000000000000000000e+00
1.685505867004394531e+01	1.459107112884521484e+01	-1.303683668375015259e-01	-6.920019626617431641e+00	2.617598325014114380e-02	-8.744151890277862549e-02	0.000000000000000000e+00	0.000000000000000000e+00
1.685279846191406250e+01	1.447725391387939453e+01	-1.356164962053298950e-01	-6.829023361206054688e+00	2.475970238447189331e-02	-8.497806638479232788e-02	0.000000000000000000e+00	0.000000000000000000e+00
1.685045623779296875e+01	1.436495113372802734e+01	-1.405099034309387207e-01	-6.738164424896240234e+00	2.338338643312454224e-02	-8.258061856031417847e-02	0.000000000000000000e+00	0.000000000000000000e+00
1.684803771972656250e+01	1.425415897369384766e+01	-1.450588703155517578e-01	-6.647512912750244141e+00	2.204602211713790894e-02	-8.024701476097106934e-02	0.000000000000000000e+00	0.000000000000000000e+00
