x	y	xdot	ydot	theta	thetadot	cl	cr
1.000177288055419922e+01	2.443948745727539062e+01	0.000000000000000000e+00	-3.270000219345092773e-01	-6.509140366688370705e-04	0.000000000000000000e+00	0.000000000000000000e+00	0.000000000000000000e+00
1.000199413299560547e+01	2.443127822875976562e+01	1.360205840319395065e-02	-4.905202984809875488e-01	-7.871951675042510033e-04	-7.756649050861597061e-03	0.000000000000000000e+00	0.000000000000000000e+00
1.000244331359863281e+01	2.442035102844238281e+01	2.720366604626178741e-02	-6.540428996086120605e-01	-1.050860737450420856e-03	-1.551353558897972107e-02	0.000000000000000000e+00	0.000000000000000000e+00
1.000312042236328125e+01	2.440670394897460938e+01	4.080498591065406799e-02	-8.175702691078186035e-01	-1.442555338144302368e-03	-2.327058650553226471e-02	0.000000000000000000e+00	0.000000000000000000e+00
1.000402450561523438e+01	2.439033699035644531e+01	5.440609157085418701e-02	-9.811042547225952148e-01	-1.962614478543400764e-03	-3.102776408195495605e-02	0.000000000000000000e+00	0.000000000000000000e+00
1.000515556335449219e+01	2.437124824523925781e+01	6.800711154937744141e-02	-1.144649386405944824e+00	-2.611175645142793655e-03	-3.878497704863548279e-02	0.000000000000000000e+00	0.000000000000000000e+00
1.000651359558105469e+01	2.434943771362304688e+01	8.160802721977233887e-02	-1.308207392692565918e+00	-3.388386219739913940e-03	-4.654221236705780029e-02	0.000000000000000000e+00	0.000000000000000000e+00
1.000809955596923828e+01	2.432489967346191406e+01	9.520884603261947632e-02	-1.471780776977539062e+00	-4.294458776712417603e-03	-5.429945886135101318e-02	0.000000000000000000e+00	0.000000000000000000e+00
1.000991249084472656e+01	2.429763984680175781e+01	1.088095456361770630e-01	-1.635372400283813477e+00	-5.329646635800600052e-03	-6.205670535564422607e-02	0.000000000000000000e+00	0.000000000000000000e+00
1.001195144653320312e+01	2.426765251159667969e+01	1.224101111292839050e-01	-1.798984885215759277e+00	-6.493833381682634354e-03	-6.981393694877624512e-02	0.000000000000000000e+00	0.000000000000000000e+00
1.001421833038330078e+01	2.423493766784667969e+01	1.360104531049728394e-01	-1.962620854377746582e+00	-7.787101902067661285e-03	-7.757116854190826416e-02	0.000000000000000000e+00	0.000000000000000000e+00
1.001671218872070312e+01	2.419949531555175781e+01	1.496105343103408813e-01	-2.126282930374145508e+00	-9.209633804857730865e-03	-8.532837033271789551e-02	0.000000000000000000e+00	0.000000000000000000e+00
1.001943111419677734e+01	2.416132736206054688e+01	1.632103174924850464e-01	-2.289973735809326172e+00	-1.076142396777868271e-02	-9.308556467294692993e-02	0.000000000000000000e+00	0.000000000000000000e+00
1.002237796783447266e+01	2.412043190002441406e+01	1.768096685409545898e-01	-2.453695535659790039e+00	-1.244225446134805679e-02	-1.008427441120147705e-01	0.000000000000000000e+00	0.000000000000000000e+00
1.002555179595947266e+01	2.407680702209472656e+01	1.904084533452987671e-01	-2.617451906204223633e+00	-1.425244379788637161e-02	-1.085999011993408203e-01	0.000000000000000000e+00	0.000000000000000000e+00
1.002895069122314453e+01	2.403045272827148438e+01	2.040065824985504150e-01	-2.781244754791259766e+00	-1.619182154536247253e-02	-1.163570359349250793e-01	0.000000000000000000e+00	0.000000000000000000e+00
1.003257751464843750e+01	2.398136901855468750e+01	2.176039069890975952e-01	-2.945077180862426758e+00	-1.826047152280807495e-02	-1.241141557693481445e-01	0.000000000000000000e+00	0.000000000000000000e+00
1.003643131256103516e+01	2.392955398559570312e+01	2.312002182006835938e-01	-3.108951568603515625e+00	-2.045838348567485809e-02	-1.318712532520294189e-01	0.000000000000000000e+00	0.000000000000000000e+00
1.004051113128662109e+01	2.387500572204589844e+01	2.447953224182128906e-01	-3.272870540618896484e+00	-2.278556302189826965e-02	-1.396283209323883057e-01	0.000000000000000000e+00	0.000000000000000000e+00
1.004481792449951172e+01	2.381772422790527344e+01	2.583890259265899658e-01	-3.436836242675781250e+00	-2.524206973612308502e-02	-1.473853886127471924e-01	0.000000000000000000e+00	0.000000000000000000e+00
1.004935073852539062e+01	2.375770950317382812e+01	2.719811499118804932e-01	-3.600852489471435547e+00	-2.782781608402729034e-02	-1.551424115896224976e-01	0.000000000000000000e+00	0.000000000000000000e+00
1.005411052703857422e+01	2.369496154785156250e+01	2.855713665485382080e-01	-3.764921665191650391e+00	-3.054280951619148254e-02	-1.628994196653366089e-01	0.000000000000000000e+00	0.000000000000000000e+00
1.005909633636474609e+01	2.362947654724121094e+01	2.991593778133392334e-01	-3.929045915603637695e+00	-3.338713198900222778e-02	-1.706563979387283325e-01	0.000000000000000000e+00	0.000000000000000000e+00
1.006430912017822266e+01	2.356125450134277344e+01	3.127448260784149170e-01	-4.093228340148925781e+00	-3.636066615581512451e-02	-1.784133166074752808e-01	0.000000000000000000e+00	0.000000000000000000e+00
1.006974792480468750e+01	2.349029541015625000e+01	3.263274431228637695e-01	-4.257470607757568359e+00	-3.946356847882270813e-02	-1.861702352762222290e-01	0.000000000000000000e+00	0.000000000000000000e+00
1.007541275024414062e+01	2.341659736633300781e+01	3.399069309234619141e-01	-4.421777248382568359e+00	-4.269564151763916016e-02	-1.939271241426467896e-01	0.000000000000000000e+00	0.000000000000000000e+00
1.008130455017089844e+01	2.334015846252441406e+01	3.534826636314392090e-01	-4.586149215698242188e+00	-4.605714231729507446e-02	-2.016839832067489624e-01	0.000000000000000000e+00	0.000000000000000000e+00
1.008742237091064453e+01	2.326097869873046875e+01	3.670543432235717773e-01	-4.750589370727539062e+00	-4.954785481095314026e-02	-2.094407826662063599e-01	0.000000000000000000e+00	0.000000000000000000e+00
1.009376621246337891e+01	2.317905616760253906e+01	3.806214630603790283e-01	-4.915100574493408203e+00	-5.316785722970962524e-02	-2.171975523233413696e-01	0.000000000000000000e+00	0.000000000000000000e+00
1.010033607482910156e+01	2.309439086914062500e+01	3.941834568977355957e-01	-5.079685211181640625e+00	-5.691712349653244019e-02	-2.249542623758316040e-01	0.000000000000000000e+00	0.000000000000000000e+00
1.010713100433349609e+01	2.300698089599609375e+01	4.077398180961608887e-01	-5.244347095489501953e+00	-6.079573184251785278e-02	-2.327109277248382568e-01	0.000000000000000000e+00	0.000000000000000000e+00
1.011415290832519531e+01	2.291682624816894531e+01	4.212899208068847656e-01	-5.409087181091308594e+00	-6.480345875024795532e-02	-2.404675334692001343e-01	0.000000000000000000e+00	0.000000000000000000e+00
1.012139892578125000e+01	2.282392311096191406e+01	4.348331093788146973e-01	-5.573909282684326172e+00	-6.894057244062423706e-02	-2.482240647077560425e-01	0.000000000000000000e+00	0.000000000000000000e+00
1.012887096405029297e+01	2.272827148437500000e+01	4.483687877655029297e-01	-5.738815784454345703e+00	-7.320684194564819336e-02	-2.559805512428283691e-01	0.000000000000000000e+00	0.000000000000000000e+00
1.013656806945800781e+01	2.262987136840820312e+01	4.618961513042449951e-01	-5.903808593750000000e+00	-7.760234177112579346e-02	-2.637369632720947266e-01	0.000000000000000000e+00	0.000000000000000000e+00
1.014449024200439453e+01	2.252871894836425781e+01	4.754144847393035889e-01	-6.068891525268554688e+00	-8.212721347808837891e-02	-2.714933454990386963e-01	0.000000000000000000e+00	0.000000000000000000e+00
1.015263843536376953e+01	2.242481422424316406e+01	4.889229238033294678e-01	-6.234066486358642578e+00	-8.678136020898818970e-02	-2.792496085166931152e-01	0.000000000000000000e+00	0.000000000000000000e+00
1.016100215911865234e+01	2.231815528869628906e+01	5.018616914749145508e-01	-6.399287223815917969e+00	-9.155941754579544067e-02	-2.866857647895812988e-01	0.000000000000000000e+00	0.000000000000000000e+00
1.016956806182861328e+01	2.220874214172363281e+01	5.140082836151123047e-01	-6.564528942108154297e+00	-9.645388275384902954e-02	-2.936746478080749512e-01	0.000000000000000000e+00	0.000000000000000000e+00
1.017832374572753906e+01	2.209657287597656250e+01	5.253752470016479492e-01	-6.729784488677978516e+00	-1.014576181769371033e-01	-3.002232611179351807e-01	0.000000000000000000e+00	0.000000000000000000e+00
1.018725585937500000e+01	2.198164939880371094e+01	5.359750986099243164e-01	-6.895048141479492188e+00	-1.065632402896881104e-01	-3.063388764858245850e-01	0.000000000000000000e+00	0.000000000000000000e+00
1.019635200500488281e+01	2.186397171020507812e+01	5.458210706710815430e-01	-7.060314178466796875e+00	-1.117636561393737793e-01	-3.120289146900177002e-01	0.000000000000000000e+00	0.000000000000000000e+00
1.020559978485107422e+01	2.174353981018066406e+01	5.549264550209045410e-01	-7.225574970245361328e+00	-1.170520037412643433e-01	-3.173008263111114502e-01	0.000000000000000000e+00	0.000000000000000000e+00
1.021498680114746094e+01	2.162035369873046875e+01	5.633051395416259766e-01	-7.390823364257812500e+00	-1.224213242530822754e-01	-3.221623599529266357e-01	0.000000000000000000e+00	0.000000000000000000e+00
1.022450160980224609e+01	2.149441337585449219e+01	5.709708929061889648e-01	-7.556052684783935547e+00	-1.278649568557739258e-01	-3.266212642192840576e-01	0.000000000000000000e+00	0.000000000000000000e+00
1.023413276672363281e+01	2.136571884155273438e+01	5.779381394386291504e-01	-7.721256732940673828e+00	-1.333762556314468384e-01	-3.306854069232940674e-01	0.000000000000000000e+00	0.000000000000000000e+00
1.024386882781982422e+01	2.123427200317382812e+01	5.842212438583374023e-01	-7.886427879333496094e+00	-1.389490067958831787e-01	-3.343628644943237305e-01	0.000000000000000000e+00	0.000000000000000000e+00
1.025369834899902344e+01	2.110007095336914062e+01	5.898351073265075684e-01	-8.051560401916503906e+00	-1.445765793323516846e-01	-3.376616239547729492e-01	0.000000000000000000e+00	0.000000000000000000e+00
1.026361083984375000e+01	2.096311759948730469e+01	5.947945713996887207e-01	-8.216646194458007812e+00	-1.502530872821807861e-01	-3.405898511409759521e-01	0.000000000000000000e+00	0.000000000000000000e+00
1.027363967895507812e+01	2.082360649108886719e+01	6.017932295799255371e-01	-8.370250701904296875e+00	-1.559559255838394165e-01	-3.421700596809387207e-01	0.000000000000000000e+00	0.000000000000000000e+00
1.028384304046630859e+01	2.068181228637695312e+01	6.122497916221618652e-01	-8.507236480712890625e+00	-1.616549640893936157e-01	-3.419415056705474854e-01	0.000000000000000000e+00	0.000000000000000000e+00
1.029427909851074219e+01	2.053799819946289062e+01	6.262215375900268555e-01	-8.628356933593750000e+00	-1.673209667205810547e-01	-3.399603962898254395e-01	0.000000000000000000e+00	0.000000000000000000e+00
1.030500602722167969e+01	2.039241600036621094e+01	6.436911821365356445e-01	-8.734546661376953125e+00	-1.729262173175811768e-01	-3.363122045993804932e-01	0.000000000000000000e+00	0.000000000000000000e+00
1.031608200073242188e+01	2.024529647827148438e+01	6.646189689636230469e-01	-8.826700210571289062e+00	-1.784443408250808716e-01	-3.310906589031219482e-01	0.000000000000000000e+00	0.000000000000000000e+00
1.032756328582763672e+01	2.009686279296875000e+01	6.889476776123046875e-01	-8.905664443969726562e+00	-1.838509440422058105e-01	-3.243949115276336670e-01	0.000000000000000000e+00	0.000000000000000000e+00
1.033950614929199219e+01	1.994731903076171875e+01	7.166038751602172852e-01	-8.972234725952148438e+00	-1.891231387853622437e-01	-3.163276314735412598e-01	0.000000000000000000e+00	0.000000000000000000e+00
1.035196304321289062e+01	1.979686164855957031e+01	7.474988698959350586e-01	-9.027163505554199219e+00	-1.942396461963653564e-01	-3.069935441017150879e-01	0.000000000000000000e+00	0.000000000000000000e+00
1.036498737335205078e+01	1.964567184448242188e+01	7.815301418304443359e-01	-9.071158409118652344e+00	-1.991811543703079224e-01	-2.964980602264404297e-01	0.000000000000000000e+00	0.000000000000000000e+00
1.037862968444824219e+01	1.949391937255859375e+01	8.185824155807495117e-01	-9.104884147644042969e+00	-2.039302587509155273e-01	-2.849464118480682373e-01	0.000000000000000000e+00	0.000000000000000000e+00
1.039293766021728516e+01	1.934176635742187500e+01	8.585290908813476562e-01	-9.128972053527832031e+00	-2.084709554910659790e-01	-2.724423110485076904e-01	0.000000000000000000e+00	0.000000000000000000e+00
1.040795707702636719e+01	1.918936157226562500e+01	9.012342691421508789e-01	-9.144015312194824219e+00	-2.127890288829803467e-01	-2.590875625610351562e-01	0.000000000000000000e+00	0.000000000000000000e+00
1.042373180389404297e+01	1.903684806823730469e+01	9.465533494949340820e-01	-9.150569915771484375e+00	-2.168719917535781860e-01	-2.449809610843658447e-01	0.000000000000000000e+00	0.000000000000000000e+00
1.044030380249023438e+01	1.888435745239257812e+01	9.943339228630065918e-01	-9.149164199829101562e+00	-2.207089066505432129e-01	-2.302179783582687378e-01	0.000000000000000000e+00	0.000000000000000000e+00
1.045771121978759766e+01	1.873201560974121094e+01	1.044417977333068848e+00	-9.140297889709472656e+00	-2.242905497550964355e-01	-2.148899585008621216e-01	0.000000000000000000e+00	0.000000000000000000e+00
1.047598838806152344e+01	1.857993888854980469e+01	1.096642971038818359e+00	-9.124438285827636719e+00	-2.276086360216140747e-01	-1.990846246480941772e-01	0.000000000000000000e+00	0.000000000000000000e+00
1.049516677856445312e+01	1.842823028564453125e+01	1.150730967521667480e+00	-9.102395057678222656e+00	-2.306572645902633667e-01	-1.829133629798889160e-01	0.000000000000000000e+00	0.000000000000000000e+00
1.051527881622314453e+01	1.827699851989746094e+01	1.206738114356994629e+00	-9.073848724365234375e+00	-2.334306389093399048e-01	-1.663963049650192261e-01	0.000000000000000000e+00	0.000000000000000000e+00
1.053635025024414062e+01	1.812633323669433594e+01	1.264283061027526855e+00	-9.039886474609375000e+00	-2.359249740839004517e-01	-1.496600657701492310e-01	0.000000000000000000e+00	0.000000000000000000e+00
1.055840492248535156e+01	1.797632408142089844e+01	1.323283910751342773e+00	-9.000589370727539062e+00	-2.381374984979629517e-01	-1.327507048845291138e-01	0.000000000000000000e+00	0.000000000000000000e+00
1.058146476745605469e+01	1.782705307006835938e+01	1.383586287498474121e+00	-8.956261634826660156e+00	-2.400663197040557861e-01	-1.157288178801536560e-01	0.000000000000000000e+00	0.000000000000000000e+00
1.060554885864257812e+01	1.767859840393066406e+01	1.445023059844970703e+00	-8.907230377197265625e+00	-2.417105585336685181e-01	-9.865330904722213745e-02	0.000000000000000000e+00	0.000000000000000000e+00
1.063067245483398438e+01	1.753103446960449219e+01	1.507426142692565918e+00	-8.853813171386718750e+00	-2.430702298879623413e-01	-8.157929778099060059e-02	0.000000000000000000e+00	0.000000000000000000e+00
1.065684986114501953e+01	1.738442993164062500e+01	1.570628643035888672e+00	-8.796312332153320312e+00	-2.441461980342864990e-01	-6.455752253532409668e-02	0.000000000000000000e+00	0.000000000000000000e+00
1.068409061431884766e+01	1.723884582519531250e+01	1.634467244148254395e+00	-8.735017776489257812e+00	-2.449400573968887329e-01	-4.763484373688697815e-02	0.000000000000000000e+00	0.000000000000000000e+00
1.071240329742431641e+01	1.709434318542480469e+01	1.698781967163085938e+00	-8.670206069946289062e+00	-2.454542666673660278e-01	-3.085361979901790619e-02	0.000000000000000000e+00	0.000000000000000000e+00
1.074179363250732422e+01	1.695097351074218750e+01	1.763416647911071777e+00	-8.602134704589843750e+00	-2.456918209791183472e-01	-1.425237581133842468e-02	0.000000000000000000e+00	0.000000000000000000e+00
1.077226352691650391e+01	1.680879020690917969e+01	1.828219413757324219e+00	-8.531052589416503906e+00	-2.456562370061874390e-01	2.133989240974187851e-03	0.000000000000000000e+00	0.000000000000000000e+00
1.080381393432617188e+01	1.666783714294433594e+01	1.893043994903564453e+00	-8.457195281982421875e+00	-2.453515976667404175e-01	1.827455312013626099e-02	0.000000000000000000e+00	0.000000000000000000e+00
1.083644294738769531e+01	1.652815818786621094e+01	1.957748413085937500e+00	-8.380785942077636719e+00	-2.447825521230697632e-01	3.414056822657585144e-02	0.000000000000000000e+00	0.000000000000000000e+00
1.087014579772949219e+01	1.638979148864746094e+01	2.022197008132934570e+00	-8.302039146423339844e+00	-2.439540624618530273e-01	4.970750212669372559e-02	0.000000000000000000e+00	0.000000000000000000e+00
1.090491676330566406e+01	1.625277137756347656e+01	2.086258172988891602e+00	-8.221155166625976562e+00	-2.428714781999588013e-01	6.495360285043716431e-02	0.000000000000000000e+00	0.000000000000000000e+00
1.094074726104736328e+01	1.611713218688964844e+01	2.149807929992675781e+00	-8.138326644897460938e+00	-2.415405511856079102e-01	7.985959202051162720e-02	0.000000000000000000e+00	0.000000000000000000e+00
1.097762584686279297e+01	1.598290348052978516e+01	2.212728023529052734e+00	-8.053738594055175781e+00	-2.399670630693435669e-01	9.440878778696060181e-02	0.000000000000000000e+00	0.000000000000000000e+00
1.101554107666015625e+01	1.585011100769042969e+01	2.274904727935791016e+00	-7.967566013336181641e+00	-2.381572872400283813e-01	1.085867136716842651e-01	0.000000000000000000e+00	0.000000000000000000e+00
1.105447864532470703e+01	1.571877765655517578e+01	2.336231946945190430e+00	-7.879975318908691406e+00	-2.361176460981369019e-01	1.223811134696006775e-01	0.000000000000000000e+00	0.000000000000000000e+00
1.109442234039306641e+01	1.558892440795898438e+01	2.396609067916870117e+00	-7.791124820709228516e+00	-2.338546067476272583e-01	1.357819288969039917e-01	0.000000000000000000e+00	0.000000000000000000e+00
1.113535499572753906e+01	1.546057033538818359e+01	2.455941438674926758e+00	-7.701164722442626953e+00	-2.313750386238098145e-01	1.487807333469390869e-01	0.000000000000000000e+00	0.000000000000000000e+00
1.117725753784179688e+01	1.533373069763183594e+01	2.514140129089355469e+00	-7.610239505767822266e+00	-2.286856472492218018e-01	1.613707542419433594e-01	0.000000000000000000e+00	0.000000000000000000e+00
1.122010993957519531e+01	1.520842075347900391e+01	2.571123838424682617e+00	-7.518486022949218750e+00	-2.257933020591735840e-01	1.735464930534362793e-01	0.000000000000000000e+00	0.000000000000000000e+00
1.126388931274414062e+01	1.508465194702148438e+01	2.626815557479858398e+00	-7.426034927368164062e+00	-2.227049618959426880e-01	1.853041052818298340e-01	0.000000000000000000e+00	0.000000000000000000e+00
1.130857467651367188e+01	1.496243286132812500e+01	2.681144952774047852e+00	-7.333008766174316406e+00	-2.194275707006454468e-01	1.966410130262374878e-01	0.000000000000000000e+00	0.000000000000000000e+00
1.135414123535156250e+01	1.484177207946777344e+01	2.734047174453735352e+00	-7.239525794982910156e+00	-2.159683257341384888e-01	2.075555622577667236e-01	0.000000000000000000e+00	0.000000000000000000e+00
1.140056514739990234e+01	1.472267436981201172e+01	2.785463094711303711e+00	-7.145697593688964844e+00	-2.123342156410217285e-01	2.180472463369369507e-01	0.000000000000000000e+00	0.000000000000000000e+00
1.144781970977783203e+01	1.460514450073242188e+01	2.835338592529296875e+00	-7.051630020141601562e+00	-2.085322588682174683e-01	2.281165421009063721e-01	0.000000000000000000e+00	0.000000000000000000e+00
1.149587917327880859e+01	1.448918342590332031e+01	2.883626222610473633e+00	-6.957423686981201172e+00	-2.045694887638092041e-01	2.377643585205078125e-01	0.000000000000000000e+00	0.000000000000000000e+00
1.154471588134765625e+01	1.437479305267333984e+01	2.930282354354858398e+00	-6.863173961639404297e+00	-2.004529088735580444e-01	2.469926625490188599e-01	0.000000000000000000e+00	0.000000000000000000e+00
1.159430313110351562e+01	1.426197242736816406e+01	2.975268602371215820e+00	-6.768970012664794922e+00	-1.961895227432250977e-01	2.558040618896484375e-01	0.000000000000000000e+00	0.000000000000000000e+00
1.164461135864257812e+01	1.415071964263916016e+01	3.018551349639892578e+00	-6.674897193908691406e+00	-1.917861104011535645e-01	2.642017304897308350e-01	0.000000000000000000e+00	0.000000000000000000e+00
