x	y	xdot	ydot	theta	thetadot	cl	cr
1.483004576617305936e+01	2.416191438346181997e+01	6.228628291796670102e-03	-3.176215210470345052e-01	-9.193811874605089607e-04	-2.971934903101508367e-04	-7.188097214851732818e-07	-4.480018649641452123e-05
1.485497568382234235e+01	2.375773896107133254e+01	1.807150995643669877e-01	-2.974533187879147889e+00	-1.719007475340681226e-02	-1.159657508855107266e-01	-1.498946797618210795e-05	5.865132880750926705e-06
1.492172486929074715e+01	2.257776194987875940e+01	2.847068424698639411e-01	-5.452277875401200014e+00	-5.491023532842254778e-02	-1.486261605048054824e-01	3.242905883156921157e-05	5.224568821287534526e-05
1.499106069205827652e+01	2.075578906022352044e+01	2.157716133612834764e-01	-8.266795828007010627e+00	-9.577676466826316737e-02	-1.544570798055120431e-01	-4.632860240333237751e-05	-1.178714880581064180e-04
1.505032273379018548e+01	1.820839067149515245e+01	3.188324276378882716e-01	-1.028677972843038191e+01	-1.283425741721878621e-01	-8.119840025842180176e-02	5.032019756596863653e-05	1.716155820692998664e-04
1.521605362044668119e+01	1.561527232532034759e+01	9.154059082987882068e-01	-8.670517496355998333e+00	-1.356772044160032553e-01	1.161016254636487374e-02	-3.865943785201373046e-05	-1.896487359939534969e-04
1.552547056977562789e+01	1.368914733421072150e+01	1.318800507200364569e+00	-6.283653968962911840e+00	-1.303375525956002312e-01	1.178563711881224982e-02	8.487139185474274682e-06	1.500018982378431304e-04
1.590171908541997681e+01	1.219492934499581338e+01	1.484378306031752137e+00	-4.943690274175491339e+00	-1.284351326474864052e-01	1.226123191453289130e-02	3.791066611615002621e-05	-4.098946380337948134e-05
1.632291486591459062e+01	1.108353374848895179e+01	1.659181875142409890e+00	-3.600088742363722449e+00	-1.236443538041944734e-01	1.653483742611082732e-02	-9.162648641312321949e-05	-1.302128799811059340e-04
1.677827231393184348e+01	1.024361113825304948e+01	1.736503321903039687e+00	-2.766720656470963657e+00	-1.201767536470562114e-01	1.352829718188020350e-02	1.372949926518162854e-04	3.317404482885516438e-04
1.725077263233625757e+01	9.611903910063373857e+00	1.804035259638458566e+00	-2.029612281822331443e+00	-1.158800119664316619e-01	1.724568545571402572e-02	-1.555643858121149117e-04	-5.072002327345056811e-04
1.773620083500212274e+01	9.158349457343994970e+00	1.825465193991525625e+00	-1.480220359815177966e+00	-1.114915147856135186e-01	1.486732341917282839e-02	1.280409128272490379e-04	5.844103038036812647e-04
1.822221154895741080e+01	8.809855519438904992e+00	1.817913771595126349e+00	-1.116429210192731558e+00	-1.075423942681648926e-01	1.671886327006404799e-02	-4.408712247219025322e-05	-4.934597367074731490e-04
1.870416683131550428e+01	8.568754691446676119e+00	1.794389607496770012e+00	-7.836986164498856988e-01	-1.028955374267702533e-01	1.588434967513907559e-02	-9.206907187217044887e-05	1.918918967454757236e-04
1.917552591135323325e+01	8.381611464981254755e+00	1.740693736158655636e+00	-5.961386957820815624e-01	-9.878989724370557113e-02	1.675798520450045778e-02	2.562588734110551620e-04	3.086389860482204191e-04
1.963181812107228907e+01	8.259861113026286006e+00	1.683766369956761544e+00	-3.567571056883508951e-01	-9.423359621197215097e-02	1.613045204463029944e-02	-4.040079931992772259e-04	-9.227998718133672380e-04
2.006954147963507040e+01	8.184717273610234045e+00	1.600063711193354665e+00	-2.273976982349857623e-01	-8.992721591507492340e-02	1.694102786388923532e-02	4.770718577245285281e-04	1.488779934788735755e-03
2.048274740353867429e+01	8.134629293626103319e+00	1.502421579647176264e+00	-1.556071087999552904e-01	-8.536933249652632616e-02	1.680848095765808542e-02	-4.175461154501245884e-04	-1.790230812309370452e-03
2.086687009567736339e+01	8.093599607724843992e+00	1.383120388292385927e+00	-1.780452937345548270e-01	-8.086522944719555517e-02	1.728203309987871514e-02	1.878560829094818229e-04	1.606044086540734479e-03
2.121778402845387390e+01	8.045780867620884180e+00	1.256385959863402846e+00	-1.345209690856565832e-01	-7.617335250905489519e-02	1.718510683504637787e-02	2.077433226871117382e-04	-7.833857475578897720e-04
2.153447915612771268e+01	8.032617991449711781e+00	1.124960639361119563e+00	-3.198098977411811556e-03	-7.202401382320224033e-02	1.505006657723631167e-02	-7.066147029550822129e-04	-6.793556297931902313e-04
2.181336307682276754e+01	8.028272090031249419e+00	9.725221907903294216e-01	-3.398055820168766061e-02	-6.727408253785395476e-02	1.981348423920057875e-02	1.183397554220940937e-03	2.559933918299619852e-03
2.204935808677042175e+01	8.020223875800336799e+00	8.065465715822537351e-01	-1.339794515114361810e-02	-6.273394941738641428e-02	1.384295801303516045e-02	-1.463795936678917312e-03	-4.381058139078181438e-03
2.224014153660075266e+01	8.021064000192414056e+00	6.338910710675037530e-01	1.929027329007944411e-03	-5.854581296468230195e-02	1.954127840423062340e-02	1.359267336024615842e-03	5.460249261136511205e-03
2.238279808085411560e+01	8.016778940180175894e+00	4.436257412284314583e-01	-2.198106383911213255e-02	-5.331589797273555281e-02	1.600549385550836812e-02	-7.258684421220120255e-04	-5.079447970688928497e-03
2.247248878807912931e+01	8.014063593780727857e+00	2.428198504947633452e-01	-4.641473316974821517e-03	-4.982742842119850663e-02	1.513994606423908588e-02	-4.569727688326702592e-04	2.752776934459957945e-03
2.250865159539463889e+01	8.010335409450860311e+00	3.656671288537602371e-02	-2.248372205909066751e-02	-4.414559113665636469e-02	2.237794486444342340e-02	2.004284947685217033e-03	1.512017469568125751e-03
2.248552101602387054e+01	8.003509635221336183e+00	-1.966001623238206319e-01	-2.679484021589887202e-02	-4.043269010277822373e-02	8.890744657320218125e-03	-3.499843550989206395e-03	-6.871055271749474530e-03
2.240128837448240162e+01	7.994370105551142025e+00	-4.210606575695899356e-01	-4.800349876132496696e-02	-3.565524916555488921e-02	2.715305223729869155e-02	4.369483073170573294e-03	1.182876416259132958e-02
2.225332846752464278e+01	7.974811300720028306e+00	-6.803787069973518120e-01	-9.186815957321999015e-02	-3.016225444489745861e-02	8.486163406258701719e-03	-3.958795103868871165e-03	-1.486966864614617731e-02
2.203478373398176871e+01	7.948516623493869560e+00	-9.348528182232899164e-01	-1.038155332659197044e-01	-2.766183367681354296e-02	2.203647373993259523e-02	2.068317348878859034e-03	1.569937863121465688e-02
2.174967723360522953e+01	7.916895670926279216e+00	-1.202388753196292903e+00	-1.336920101540212957e-01	-1.952814466976361685e-02	2.040901037582864772e-02	8.719020944050818707e-04	-1.436592002353709319e-02
2.138005827360381161e+01	7.877632395876250193e+00	-1.550156156300372512e+00	-1.579152639125155633e-01	-2.418088795334480401e-02	-4.652218907940774972e-02	-3.662895756652067170e-03	1.876951793958843082e-03
2.092316431179581926e+01	7.830794906332179117e+00	-1.845961653699965010e+00	-1.947171689179692244e-01	-4.088953729543410437e-02	-8.045232745629918303e-02	6.608289867806247699e-03	1.149543953639317606e-02
2.039666156143585241e+01	7.775303458472168749e+00	-2.071749144651976238e+00	-2.093338824457766922e-01	-7.103471862044277718e-02	-1.307484444780178945e-01	-1.429791165365790033e-02	-3.483519954011424918e-02
1.982865413278567246e+01	7.721014491835637372e+00	-2.166210636021312030e+00	-2.090917887024817123e-01	-9.795417604801817668e-02	-7.172638487389527973e-02	1.231568320340310427e-02	6.487427128537813503e-02
1.923731590251123436e+01	7.658267028552493194e+00	-2.267361335825569757e+00	-2.477968776731673262e-01	-1.273739486501615781e-01	-1.714937144386290135e-01	-2.018229212797824704e-02	-1.114769720558698302e-01
1.864011899475426048e+01	7.603554060678940907e+00	-2.141880459085176103e+00	-1.542846181737571598e-01	-1.650136325238821533e-01	-1.625714388239164754e-02	1.477196373599510421e-02	2.744659557009754836e-01
1.812368080391517822e+01	7.564941565916704747e+00	-1.782571193889995964e+00	-1.695211471522988789e-01	-1.038888521710049362e-01	3.909947748497039632e-01	-1.647160884621370891e-02	7.882315741613440396e-01
1.765573188566208174e+01	7.515494040064687020e+00	-1.762131385942433681e+00	-1.463303485722365072e-01	-1.181959137132583028e-02	2.486743514570662061e-01	-2.859592849358516889e-03	3.582654489805115472e-01
1.721921934533947507e+01	7.516315363991857623e+00	-1.416750252057736637e+00	1.330429848315229924e-01	4.701821298630379925e-02	2.609953554004217913e-01	7.197694078107670368e-01	1.343923987094100825e-01
1.694534070926858504e+01	7.557977903121296137e+00	-6.967314235065695804e-01	1.167044673559447937e-01	1.271476603564545005e-01	2.715448988463607383e-01	1.091360031395920860e+00	2.588625480874306994e-02
1.682965927091936820e+01	7.568726078707404881e+00	-2.387074224204825401e-01	-1.975542879992641526e-03	1.643800783501929985e-01	3.356499000817406153e-02	9.245776461632984056e-01	-3.923506139811875487e-02
1.682000173163547174e+01	7.568488229494621855e+00	1.369427764250121249e-01	1.724179175074610788e-03	1.623963559766583020e-01	-2.410829012703579258e-02	1.045377121759852201e+00	3.475410407771170607e-02
1.688994931487991735e+01	7.565100861138032151e+00	3.266828800553881473e-01	-2.853392707020714625e-02	1.479372611081938294e-01	-8.771203702703747607e-02	9.478914498908193043e-01	-2.620712139467750931e-02
1.698240554665901314e+01	7.554176711983290105e+00	3.758265231117530747e-01	-5.036649650440077480e-02	1.177786580685644402e-01	-1.271687586830416716e-01	1.036637800520929575e+00	1.159110666608094593e-02
1.710633597315242937e+01	7.538978945824327482e+00	5.498618678586636443e-01	-5.564882613701249009e-02	8.240925938633412995e-02	-1.283042930906422574e-01	9.238236587559883750e-01	-4.341829940793497968e-03
1.725875120828784048e+01	7.529249026967716141e+00	5.386329602548186601e-01	-1.988361866765618255e-02	5.934414268729162889e-02	-4.059167075988173029e-02	3.892410539537769498e-01	-4.110683206339652354e-03
1.737886824088512938e+01	7.523183970083124450e+00	3.907513165224305585e-01	-3.254202188404464041e-02	5.370745408085852296e-02	-2.903985155010694805e-02	6.708656862072989169e-01	8.856297901793416805e-03
1.748086274932245132e+01	7.514869612428778822e+00	3.778160423161383563e-01	-1.940824250871507617e-02	4.075023944587355396e-02	-4.808667903819750788e-02	6.066431510009234751e-01	-1.007230763211598365e-02
1.756838253314808895e+01	7.512483118086999312e+00	2.755349605974499738e-01	-1.186906013847794338e-02	3.533334376770933677e-02	-5.189867844530121968e-03	4.977956681871362199e-01	8.580656458413707041e-03
1.764037455192817916e+01	7.505278260363608567e+00	2.922974310150723287e-01	-3.135086868967877638e-02	2.841392646421828441e-02	-4.598304790051104679e-02	8.387607174239162244e-01	-5.475377789983785874e-03
1.771264511249236051e+01	7.502625388095006009e+00	1.966742472436525946e-01	9.575896981193007459e-03	2.077399601558170203e-02	2.337525082938898824e-03	3.954324978999036455e-01	1.983154416616019454e-03
1.773423615135473597e+01	7.504430721239534030e+00	3.447435666774765345e-02	-4.817183595829284404e-03	2.536238558965463186e-02	7.481877778325780187e-03	7.548535390983838189e-01	9.521019034200171914e-04
1.776863892742090556e+01	7.502528653467484432e+00	2.133033117003626522e-01	2.065022446529356584e-03	2.066204231701171401e-02	-2.397474623894087220e-02	6.684801554271566637e-01	-2.760198112719442886e-03
1.779962475206324513e+01	7.506604940514447044e+00	-6.548313376840114719e-02	1.744166249056468970e-02	2.232579478231858441e-02	3.335821799956508599e-02	-2.204002874896030528e-01	3.345141575944129888e-03
1.773263468185767167e+01	7.507756264087835696e+00	-3.035076979877763259e-01	-4.478109133009986788e-03	3.085932906376534848e-02	1.756461650439696681e-02	6.382917580259204193e-01	-2.943353688867111472e-03
1.770359657973199674e+01	7.507981907525580034e+00	1.019068502558320294e-01	7.203669651383678117e-03	3.105245155569684098e-02	-7.581607035124410948e-03	1.096037372393690701e+00	1.956173906268818957e-03
1.776161942667919647e+01	7.508827786366995660e+00	2.207321811188764638e-01	-3.872000272206037232e-03	2.821725454862306082e-02	-1.249462332242303082e-02	3.905581504268203497e-01	-8.015331743117004885e-04
1.777652070529550343e+01	7.508605495313026346e+00	-1.165830793777160312e-01	9.177752975212928599e-03	2.848467484116453882e-02	2.300490128364109099e-02	1.154280517932742139e-01	-1.917463874420297836e-04
1.771392580370383740e+01	7.512736313823130452e+00	-2.539205799417410536e-01	1.056700798584997263e-02	3.950862155251131519e-02	3.808369678510963030e-02	7.936837015851733179e-01	8.347700349677334396e-04
1.769474184578139386e+01	7.511357678948778371e+00	1.315032750311216914e-01	-1.185673617689027640e-02	3.853586065682643169e-02	-3.701390051549987431e-02	1.154448735483154964e+00	-1.080654897636939508e-03
1.776011899212532086e+01	7.511471986056215577e+00	2.349707962636067293e-01	1.026593134531495963e-02	3.190774639097733456e-02	3.746079815054835071e-03	2.805815683237385949e-01	9.919486877307968822e-04
1.778314688970714741e+01	7.511499562851850165e+00	-9.829074978405656984e-03	-1.325799401488855084e-02	3.636261811666264415e-02	5.461538258822853063e-03	6.562983400330349992e-01	-6.922119851732003734e-04
1.780221225681492925e+01	7.509781407900122829e+00	1.890347186169013260e-01	1.187402101518538790e-02	3.158993842187291651e-02	-2.173821906693160569e-02	8.578787684235299471e-01	3.178708993012163849e-04
1.785184288696996191e+01	7.515593525205438219e+00	6.446217099873860490e-02	1.249976143571725380e-02	3.205875689017002872e-02	1.581312327078912214e-02	-1.955829855440673407e-02	1.839625399129990051e-05
1.779487907054487295e+01	7.512116810987046200e+00	-4.263502251822853251e-01	-2.233155291696641703e-02	3.343760723372762866e-02	-1.448200561443222824e-03	1.789267125041907880e-01	-2.474606054198541885e-04
1.767369181198237271e+01	7.513025343774225817e+00	-3.800484739123740074e-01	2.670095595820297027e-02	4.011429216218651700e-02	5.311018010888428342e-02	7.253214896098607589e-01	3.470607895054963533e-04
1.762881534841569220e+01	7.517766307691970518e+00	2.910664534419596730e-02	-3.698388425563162770e-03	5.046914017200490599e-02	3.042206210962713759e-04	1.124452257098056629e+00	-3.328416466702152675e-04
1.767655421127493653e+01	7.513144408059277524e+00	2.499523168993123268e-01	-1.512578182682655301e-02	4.019171708764401885e-02	-4.607300851113286383e-02	6.993372666973510787e-01	2.430134279062729820e-04
1.773431836360332881e+01	7.512199806228742283e+00	1.736337736990866687e-01	-5.707843651946240687e-04	3.622906288178938394e-02	6.430199005407957226e-03	5.584074770419577005e-01	-1.222716415097145669e-04
1.777790611779948193e+01	7.510109573762826507e+00	1.685238655727471224e-01	-1.062353655468548964e-02	3.503403619370341893e-02	-1.923662260674284183e-02	7.574530449078038519e-01	9.073555295116781253e-06
1.781769234692366055e+01	7.509105330892268171e+00	1.190512671139032363e-01	4.803432792391523006e-04	3.060266167851708602e-02	-6.505922166013871841e-03	5.596789335274967581e-01	7.169461258398106751e-05
1.785118512721960826e+01	7.507406758714807005e+00	1.633671813030810882e-01	-1.360364531165698422e-02	2.943167370326518414e-02	-1.091133123507937938e-02	8.163298945107950733e-01	-1.105464988981433734e-04
1.790286952356893835e+01	7.504371660875274408e+00	1.778602051325033073e-01	-5.028319618539558826e-03	2.485990619013499561e-02	-1.468463515922837845e-02	5.789177304435224602e-01	1.109652609860541713e-04
1.793311971427102591e+01	7.504288001891079141e+00	8.561226470423213830e-02	2.582642605419958209e-04	2.436762029191861037e-02	6.688014889237712916e-03	6.824992010820821742e-01	-8.460106496165848756e-05
1.796653589462450640e+01	7.504185045955064304e+00	1.376467827164861157e-01	1.157416952372652399e-03	2.533161882108481838e-02	-2.153600033146657166e-03	6.248751859805283804e-01	4.597549402777825994e-05
1.796002742507748096e+01	7.505808447559986440e+00	-2.308800217882568950e-01	1.050667714488735284e-02	2.493606570387190899e-02	6.807073739952946428e-03	5.954313020927266831e-02	-8.115508631336722833e-06
1.785595167819479556e+01	7.509795453157330769e+00	-4.237701743631222540e-01	1.796070017330643476e-02	3.250370687421517274e-02	4.494375116529691211e-02	5.669707764980339570e-01	-2.011868016895162735e-05
1.778873373734829499e+01	7.513786909603275888e+00	-6.254889197929355826e-02	9.054966371986052434e-03	4.232396591910597694e-02	1.600304951083345376e-02	1.127231068241967060e+00	3.488793644650093657e-05
1.781995490190819709e+01	7.514382939323457578e+00	2.259508161316157726e-01	-7.056583061603093022e-04	3.916068278531138758e-02	-2.570188084346057208e-02	7.831271965170982785e-01	-3.676126988060643143e-05
1.786795200577332920e+01	7.514794920356385965e+00	5.655869940114979094e-02	3.989064605965608051e-03	3.583987850156700183e-02	6.169066806588271827e-03	1.071725592966129292e-01	2.923144008362329598e-05
1.782581501772783383e+01	7.516821564283617363e+00	-3.040647465262316107e-01	1.184614402309908110e-02	4.279798405150314622e-02	3.895726447455979957e-02	4.085776084977684741e-01	-1.698207608393872444e-05
1.775668017186053049e+01	7.520353243873468152e+00	-1.348462343343529712e-01	9.220130405115659761e-03	5.197406492502760350e-02	1.875037576189980681e-02	1.075673517576589022e+00	4.398532186835650494e-06
1.777265959843716203e+01	7.519381116503395468e+00	2.042031022334609980e-01	-1.227875344674001640e-02	4.844440381554207531e-02	-3.556941498814406716e-02	9.425226865562849055e-01	5.394326694928102280e-06
1.783748665675603817e+01	7.517786269525243981e+00	2.032773244372783339e-01	3.689309045033399743e-03	4.151037901908404687e-02	-4.828968550369044932e-03	3.453036386804274605e-01	-1.089737318047013183e-05
1.783565348297699416e+01	7.519627144151692200e+00	-2.264609880073272519e-01	4.848316820342878780e-03	4.571546482504323938e-02	2.434132131200861596e-02	1.593745558954198782e-01	1.210027550347280762e-05
1.774249081060147759e+01	7.521837246394335708e+00	-3.367446537805000029e-01	1.783577176837862835e-02	5.281667996133007636e-02	3.190500513243858804e-02	8.463380813703869077e-01	-1.002879888876576332e-05
1.770899698731937377e+01	7.527504892138578541e+00	6.387406723118900509e-02	9.505729433866665773e-03	6.055794487639143409e-02	1.114687241687586233e-02	1.036942118724339723e+00	6.181632540007030494e-06
1.775144566777179378e+01	7.520511901249865794e+00	2.017114375306634511e-01	-5.036192332186438525e-02	5.116519014900619555e-02	-6.945616609843699440e-02	8.916627056726695866e-01	-2.025798757597418041e-06
1.782089925068738268e+01	7.511947262656617497e+00	3.192966517373297952e-01	-1.741035443040722967e-03	3.641597183268704269e-02	-2.244475311542446991e-02	7.453405889904838322e-01	-1.346058710398819167e-06
1.789097737389383980e+01	7.515839072715142954e+00	1.183873261945403293e-01	9.642459700306410877e-03	3.799453282126401266e-02	1.146682851064002168e-02	2.090981331637943585e-01	3.363677003357897879e-06
1.785393133995103554e+01	7.514174446452976497e+00	-3.207223769301690286e-01	-6.798148069998834371e-03	3.891236204201517501e-02	9.758514442671468309e-03	3.536964146926647734e-01	-3.956445573304794612e-06
1.776814254065041254e+01	7.518305979342714274e+00	-2.451741852498055541e-01	2.819630997693518132e-02	4.977053552049062052e-02	5.696329552032304566e-02	8.729287186966722123e-01	3.417605181914284562e-06
1.774667682047448025e+01	7.520366045335943994e+00	7.364200002184388694e-02	-1.560950726649478100e-02	5.440586142146473791e-02	-3.134243901471404220e-02	1.141275115901960957e+00	-2.222565660773831998e-06
1.780271435706015737e+01	7.516510632310867024e+00	2.720131301455804840e-01	7.026331079149044766e-04	4.247449087540413476e-02	-2.416513208706382379e-02	5.290427078216732859e-01	8.590118898196367093e-07
1.784506102596160915e+01	7.519324787907423868e+00	1.678551813838473003e-02	4.982403307082198043e-03	4.657834885415011034e-02	2.846079584102812268e-02	4.133354998669733216e-01	2.939958871657227585e-07
1.784213978704656967e+01	7.516836367454036605e+00	7.467397139010011065e-02	-1.155359655376305382e-02	4.578819130564237838e-02	-2.944152254670396457e-02	1.126786633255931758e+00	-1.023865500306905505e-06
